##NAMES=Abhurite
##LOCALITY=Wreck of the SS Cheerful, 14 miles NNW of St. Ives, Cornwall, England
##RRUFFID=R060227
##CHEMISTRY=Sn^2+^_21_Cl_16_(OH)_14_O_6_
106.612, 17.368
107.094, 8.415
107.576, 12.485
108.058, 8.266
108.540, 16.054
109.022, 37.292
109.504, 65.273
109.986, 95.190
110.469, 26.931
110.951, 69.199
111.433, 85.884
111.915, 78.368
112.397, 28.727
112.879, 5.229
113.361, 32.898
113.843, 61.914
114.326, 17.760
114.808, 106.230
115.290, 61.699
115.772, 69.206
116.254, 51.799
116.736, 85.975
117.218, 103.250
117.700, 67.445
118.182, 59.871
118.664, 97.086
119.147, 73.661
119.629, 156.473
120.111, 144.654
120.593, 91.577
121.075, 122.384
121.557, 141.441
122.039, 89.071
122.521, 382.478
123.004, 746.320
123.486, 1190.230
123.968, 1731.239
124.450, 2309.893
124.932, 2907.296
125.414, 3521.551
125.896, 4132.885
126.378, 4751.649
126.860, 5354.355
127.343, 5907.206
127.825, 6379.474
128.307, 6832.908
128.789, 7338.400
129.271, 7904.455
129.753, 8408.466
130.235, 8803.249
130.717, 9081.804
131.200, 9233.786
131.682, 9259.782
132.164, 9154.377
132.646, 8884.379
133.128, 8422.478
133.610, 7912.907
134.092, 7387.874
134.574, 6870.300
135.057, 6394.561
135.539, 5965.371
136.021, 5588.506
136.503, 5275.049
136.985, 5019.866
137.467, 4845.267
137.949, 4768.333
138.431, 4766.922
138.913, 4816.645
139.396, 4905.175
139.878, 5036.156
140.360, 5220.852
140.842, 5461.847
141.324, 5763.031
141.806, 6144.196
142.288, 6573.156
142.770, 6999.914
143.253, 7398.403
143.735, 7767.256
144.217, 8108.377
144.699, 8451.253
145.181, 8717.098
145.663, 8894.764
146.145, 8983.311
146.627, 8983.731
147.109, 8891.517
147.592, 8708.869
148.074, 8472.308
148.556, 8139.997
149.038, 7787.493
149.520, 7400.626
150.002, 7008.846
150.484, 6665.752
150.966, 6425.037
151.449, 6292.750
151.931, 6122.634
152.413, 5896.915
152.895, 5642.250
153.377, 5345.853
153.859, 5031.593
154.341, 4746.986
154.823, 4534.933
155.305, 4399.395
155.788, 4302.481
156.270, 4252.856
156.752, 4229.381
157.234, 4226.481
157.716, 4243.124
158.198, 4279.927
158.680, 4337.301
159.162, 4415.776
159.644, 4517.089
160.127, 4627.329
160.609, 4767.859
161.091, 4956.255
161.573, 5187.875
162.055, 5439.500
162.537, 5687.856
163.019, 5931.915
163.501, 6180.059
163.984, 6426.003
164.466, 6678.931
164.948, 6945.918
165.430, 7226.183
165.912, 7508.651
166.394, 7785.986
166.876, 8064.250
167.358, 8296.776
167.840, 8474.755
168.322, 8617.458
168.805, 8747.751
169.287, 8861.630
169.769, 8932.582
170.251, 8932.500
170.733, 8852.359
171.215, 8727.661
171.697, 8558.562
172.180, 8352.687
172.662, 8101.498
173.144, 7812.163
173.626, 7503.204
174.108, 7192.255
174.590, 6878.442
175.072, 6571.188
175.554, 6259.162
176.036, 5961.525
176.518, 5688.796
177.001, 5444.270
177.483, 5219.840
177.965, 5012.538
178.447, 4824.302
178.929, 4660.592
179.411, 4516.049
179.893, 4401.743
180.376, 4324.888
180.858, 4285.753
181.340, 4274.343
181.822, 4283.811
182.304, 4317.854
182.786, 4360.062
183.268, 4401.688
183.750, 4456.958
184.232, 4536.006
184.714, 4639.865
185.197, 4764.932
185.679, 4904.485
186.161, 5060.977
186.643, 5255.529
187.125, 5497.555
187.607, 5770.211
188.089, 6059.715
188.571, 6363.884
189.054, 6689.662
189.536, 7032.598
190.018, 7399.803
190.500, 7846.739
190.982, 8391.347
191.464, 9005.396
191.946, 9654.616
192.428, 10338.348
192.911, 11086.791
193.393, 11914.705
193.875, 12838.269
194.357, 13872.458
194.839, 14997.769
195.321, 16245.203
195.803, 17639.049
196.285, 19183.271
196.767, 20856.770
197.249, 22665.877
197.732, 24624.994
198.214, 26703.150
198.696, 28894.619
199.178, 31199.816
199.660, 33631.809
200.142, 36186.922
200.624, 38834.613
201.107, 41579.195
201.589, 44407.215
202.071, 47123.289
202.553, 49772.473
203.035, 52302.383
203.517, 54753.285
203.999, 57109.184
204.481, 59178.863
204.963, 60902.031
205.445, 62182.836
205.928, 62913.289
206.410, 63112.039
206.892, 62761.719
207.374, 61815.445
207.856, 60291.562
208.338, 58277.250
208.820, 55747.457
209.302, 52747.676
209.785, 49584.660
210.267, 46146.570
210.749, 42672.020
211.231, 39259.645
211.713, 35917.742
212.195, 32742.830
212.677, 29754.129
213.159, 26984.539
213.641, 24453.127
214.124, 22171.664
214.606, 20095.275
215.088, 18213.072
215.570, 16522.936
216.052, 15068.967
216.534, 13904.110
217.016, 12941.612
217.498, 11959.111
217.980, 10916.676
218.463, 9927.430
218.945, 9014.222
219.427, 8184.185
219.909, 7457.937
220.391, 6854.734
220.873, 6337.941
221.355, 5840.460
221.837, 5343.716
222.320, 4895.889
222.802, 4529.168
223.284, 4219.402
223.766, 3917.006
224.248, 3604.197
224.730, 3303.776
225.212, 3061.605
225.694, 2885.809
226.176, 2718.066
226.659, 2543.799
227.141, 2370.526
227.623, 2211.546
228.105, 2069.877
228.587, 1941.105
229.069, 1823.359
229.551, 1720.232
230.033, 1604.137
230.516, 1447.067
230.998, 1287.334
231.480, 1169.728
231.962, 1102.353
232.444, 1058.129
232.926, 1010.868
233.408, 959.110
233.890, 908.974
234.372, 851.238
234.855, 801.625
235.337, 774.115
235.819, 769.676
236.301, 780.825
236.783, 802.542
237.265, 836.287
237.747, 876.851
238.229, 917.426
238.712, 970.638
239.194, 1047.859
239.676, 1146.613
240.158, 1254.564
240.640, 1363.062
241.122, 1471.828
241.604, 1585.586
242.086, 1682.382
242.568, 1802.871
243.051, 1974.960
243.533, 2186.827
244.015, 2404.926
244.497, 2607.175
244.979, 2800.840
245.461, 3026.189
245.943, 3300.002
246.425, 3581.892
246.908, 3855.192
247.390, 4130.440
247.872, 4428.491
248.354, 4759.917
248.836, 5118.542
249.318, 5485.448
249.800, 5866.775
250.282, 6246.189
250.764, 6621.817
251.247, 6994.437
251.729, 7374.874
252.211, 7764.859
252.693, 8138.247
253.175, 8448.430
253.657, 8671.611
254.139, 8853.529
254.621, 9007.631
255.104, 9114.240
255.586, 9159.525
256.068, 9139.389
256.550, 9055.273
257.032, 8908.039
257.514, 8696.217
257.996, 8412.687
258.478, 8032.311
258.960, 7617.668
259.443, 7192.517
259.925, 6766.073
260.407, 6337.196
260.889, 5901.766
261.371, 5457.062
261.853, 5045.698
262.335, 4676.836
262.817, 4330.428
263.299, 3998.715
263.782, 3682.983
264.264, 3387.752
264.746, 3116.498
265.228, 2867.310
265.710, 2623.672
266.192, 2370.741
266.674, 2142.804
267.156, 1953.260
267.638, 1790.910
268.121, 1642.548
268.603, 1501.656
269.085, 1368.166
269.567, 1240.934
270.049, 1112.127
270.531, 1004.045
271.013, 932.774
271.496, 874.967
271.978, 808.482
272.460, 725.659
272.942, 635.625
273.424, 538.571
273.906, 500.474
274.388, 488.016
274.870, 469.357
275.352, 444.827
275.835, 396.791
276.317, 379.123
276.799, 349.307
277.281, 318.995
277.763, 305.633
278.245, 261.058
278.727, 247.431
279.209, 221.440
279.691, 201.114
280.174, 168.537
280.656, 139.741
281.138, 123.183
281.620, 99.833
282.102, 65.804
282.584, 32.949
283.066, 20.679
283.548, 64.138
284.030, 98.961
284.513, 127.385
284.995, 149.752
285.477, 166.313
285.959, 175.137
286.441, 175.276
286.923, 175.489
287.405, 179.040
287.888, 186.446
288.370, 198.595
288.852, 217.972
289.334, 238.865
289.816, 259.283
290.298, 278.436
290.780, 290.639
291.262, 290.808
291.744, 285.450
292.227, 288.190
292.709, 303.587
293.191, 312.786
293.673, 303.692
294.155, 283.612
294.637, 265.409
295.119, 252.076
295.601, 243.150
296.083, 239.380
296.566, 241.953
297.048, 242.509
297.530, 242.817
298.012, 239.063
298.494, 227.372
298.976, 207.469
299.458, 181.670
299.940, 151.062
300.422, 115.215
300.905, 80.915
301.387, 44.495
301.869, 13.001
302.351, 8.200
302.833, 21.431
303.315, 32.726
303.797, 45.538
304.279, 59.838
304.762, 75.533
305.244, 96.831
305.726, 114.553
306.208, 120.095
306.690, 124.042
307.172, 142.261
307.654, 180.514
308.136, 226.418
308.618, 254.926
309.101, 255.053
309.583, 257.700
310.065, 256.009
310.547, 261.944
311.029, 289.670
311.511, 337.365
311.993, 385.800
312.475, 413.264
312.957, 416.868
313.440, 422.984
313.922, 427.374
314.404, 439.009
314.886, 470.021
315.368, 511.221
315.850, 540.412
316.332, 536.498
316.814, 513.223
317.297, 524.387
317.779, 588.126
318.261, 648.595
318.743, 683.790
319.225, 704.731
319.707, 720.053
320.189, 728.532
320.671, 743.992
321.154, 736.710
321.636, 773.461
322.118, 829.321
322.600, 880.424
323.082, 927.025
323.564, 955.914
324.046, 1007.455
324.528, 1049.781
325.010, 1091.637
325.492, 1146.090
325.975, 1177.054
326.457, 1231.117
326.939, 1275.823
327.421, 1324.662
327.903, 1364.232
328.385, 1406.535
328.867, 1457.920
329.349, 1504.126
329.832, 1542.244
330.314, 1590.762
330.796, 1624.604
331.278, 1642.363
331.760, 1664.870
332.242, 1691.427
332.724, 1716.434
333.206, 1750.952
333.689, 1802.682
334.171, 1865.731
334.653, 1929.470
335.135, 1989.647
335.617, 2049.384
336.099, 2114.982
336.581, 2200.299
337.063, 2266.976
337.545, 2295.167
338.028, 2319.239
338.510, 2369.296
338.992, 2446.118
339.474, 2525.868
339.956, 2582.425
340.438, 2611.190
340.920, 2659.321
341.402, 2745.102
341.884, 2830.732
342.367, 2899.386
342.849, 2960.973
343.331, 3035.205
343.813, 3134.016
344.295, 3252.191
344.777, 3377.382
345.259, 3516.084
345.741, 3646.248
346.224, 3753.799
346.706, 3854.008
347.188, 3959.117
347.670, 4071.307
348.152, 4192.262
348.634, 4322.757
349.116, 4463.369
349.598, 4620.868
350.081, 4806.263
350.563, 4994.869
351.045, 5169.454
351.527, 5332.293
352.009, 5490.197
352.491, 5642.123
352.973, 5791.629
353.455, 5946.151
353.937, 6106.701
354.419, 6261.961
354.902, 6404.269
355.384, 6536.860
355.866, 6670.846
356.348, 6824.062
356.830, 6960.866
357.312, 7059.943
357.794, 7130.323
358.276, 7190.598
358.759, 7244.892
359.241, 7300.226
359.723, 7373.575
360.205, 7494.025
360.687, 7566.921
361.169, 7566.343
361.651, 7532.125
362.133, 7491.167
362.616, 7448.222
363.098, 7399.845
363.580, 7343.572
364.062, 7279.387
364.544, 7193.885
365.026, 7058.081
365.508, 6934.192
365.990, 6847.946
366.472, 6778.833
366.955, 6698.531
367.437, 6594.210
367.919, 6467.974
368.401, 6318.542
368.883, 6133.841
369.365, 5962.357
369.847, 5831.234
370.329, 5701.577
370.811, 5541.525
371.294, 5350.918
371.776, 5167.690
372.258, 5032.585
372.740, 4934.144
373.222, 4807.204
373.704, 4638.459
374.186, 4461.344
374.668, 4295.196
375.151, 4138.008
375.633, 3980.677
376.115, 3720.489
376.597, 3553.547
377.079, 3436.792
377.561, 3355.147
378.043, 3264.939
378.525, 3166.621
379.008, 3036.049
379.490, 2947.085
379.972, 2841.406
380.454, 2735.024
380.936, 2651.833
381.418, 2525.827
381.900, 2442.225
382.382, 2341.636
382.864, 2237.120
383.346, 2135.948
383.829, 2037.325
384.311, 1943.853
384.793, 1852.469
385.275, 1769.197
385.757, 1700.108
386.239, 1639.982
386.721, 1579.678
387.203, 1514.711
387.685, 1448.276
388.168, 1387.278
388.650, 1333.632
389.132, 1281.286
389.614, 1234.474
390.096, 1184.958
390.578, 1122.149
391.060, 1048.175
391.543, 979.967
392.025, 936.933
392.507, 913.945
392.989, 880.517
393.471, 830.067
393.953, 781.776
394.435, 750.309
394.917, 727.815
395.399, 702.506
395.882, 674.487
396.364, 638.765
396.846, 581.271
397.328, 508.919
397.810, 456.703
398.292, 441.597
398.774, 442.728
399.256, 426.777
399.738, 391.612
400.221, 354.476
400.703, 314.467
401.185, 275.935
401.667, 242.164
402.149, 213.624
402.631, 191.043
403.113, 175.862
403.595, 167.215
404.078, 154.641
404.560, 135.604
405.042, 115.626
405.524, 87.514
406.006, 62.523
406.488, 37.502
406.970, 15.423
407.452, 5.973
407.934, 21.587
408.417, 37.388
408.899, 42.071
409.381, 2.021
409.863, 19.970
410.345, 14.816
410.827, 21.249
411.309, 11.578
411.791, 1.433
412.273, 7.094
412.756, 9.195
413.238, 4.291
413.720, 1.368
414.202, 8.736
414.684, 12.537
415.166, 1.425
415.648, 32.882
416.130, 53.114
416.612, 31.342
417.095, 9.853
417.577, 36.303
418.059, 42.179
418.541, 43.211
419.023, 54.307
419.505, 76.071
419.987, 89.525
420.470, 86.745
420.952, 85.679
421.434, 93.871
421.916, 107.557
422.398, 121.839
422.880, 134.632
423.362, 143.836
423.844, 144.402
424.326, 131.744
424.809, 123.041
425.291, 114.666
425.773, 114.261
426.255, 135.415
426.737, 169.851
427.219, 190.962
427.701, 173.225
428.183, 135.001
428.665, 123.822
429.148, 144.788
429.630, 169.233
430.112, 190.268
430.594, 205.146
431.076, 210.268
431.558, 204.120
432.040, 193.168
432.522, 171.829
433.004, 150.377
433.487, 150.629
433.969, 176.425
434.451, 205.636
434.933, 216.642
435.415, 208.969
435.897, 216.600
436.379, 254.695
436.862, 289.253
437.344, 304.270
437.826, 309.042
438.308, 316.863
438.790, 333.002
439.272, 356.512
439.754, 382.498
440.236, 401.040
440.718, 399.448
441.201, 431.479
441.683, 455.375
442.165, 471.573
442.647, 456.990
443.129, 482.417
443.611, 492.191
444.093, 501.475
444.575, 532.624
445.057, 522.653
445.540, 553.255
446.022, 567.745
446.504, 589.807
446.986, 596.354
447.468, 609.434
447.950, 639.152
448.432, 659.990
448.914, 666.653
449.397, 691.446
449.879, 683.372
450.361, 704.706
450.843, 739.681
451.325, 743.825
451.807, 749.844
452.289, 796.987
452.771, 833.033
453.253, 844.619
453.736, 843.790
454.218, 839.992
454.700, 837.339
455.182, 840.976
455.664, 858.669
456.146, 890.934
456.628, 913.579
457.110, 919.425
457.592, 925.104
458.075, 940.416
458.557, 959.301
459.039, 970.899
459.521, 969.009
460.003, 966.347
460.485, 978.255
460.967, 1002.585
461.449, 1024.936
461.931, 1040.843
462.414, 1053.265
462.896, 1067.041
463.378, 1082.815
463.860, 1100.788
464.342, 1122.629
464.824, 1144.948
465.306, 1168.118
465.788, 1190.210
466.271, 1204.029
466.753, 1205.624
467.235, 1204.149
467.717, 1221.347
468.199, 1276.680
468.681, 1310.890
469.163, 1310.286
469.645, 1302.105
470.128, 1296.847
470.610, 1297.210
471.092, 1307.031
471.574, 1334.526
472.056, 1367.048
472.538, 1371.092
473.020, 1341.581
473.502, 1314.596
473.984, 1307.624
474.466, 1305.739
474.949, 1287.873
475.431, 1251.822
475.913, 1216.771
476.395, 1191.929
476.877, 1170.970
477.359, 1148.797
477.841, 1124.265
478.323, 1093.502
478.806, 1053.148
479.288, 1004.870
479.770, 956.184
480.252, 904.593
480.734, 856.033
481.216, 810.085
481.698, 767.334
482.180, 729.800
482.663, 696.678
483.145, 663.688
483.627, 625.425
484.109, 583.713
484.591, 555.423
485.073, 548.449
485.555, 536.939
486.037, 504.965
486.519, 465.658
487.002, 432.765
487.484, 409.354
487.966, 386.179
488.448, 353.950
488.930, 319.283
489.412, 295.734
489.894, 285.151
490.376, 276.392
490.858, 260.479
491.341, 238.552
491.823, 222.167
492.305, 201.498
492.787, 204.963
493.269, 202.561
493.751, 194.603
494.233, 164.474
494.715, 162.972
495.198, 150.019
495.680, 136.623
496.162, 139.257
496.644, 123.150
497.126, 111.012
497.608, 107.725
498.090, 90.889
498.572, 69.354
499.055, 54.366
499.537, 49.801
500.019, 45.250
500.501, 26.730
500.983, 3.480
501.465, 1.110
501.947, 24.817
502.429, 50.101
502.911, 58.081
503.393, 49.498
503.876, 34.722
504.358, 3.231
504.840, 20.926
505.322, 29.098
505.804, 28.350
506.286, 24.276
506.768, 19.393
507.250, 17.956
507.733, 26.534
508.215, 44.893
508.697, 54.667
509.179, 52.524
509.661, 47.362
510.143, 41.712
510.625, 35.567
511.107, 27.579
511.590, 16.127
512.072, 9.689
512.554, 20.343
513.036, 39.042
513.518, 45.170
514.000, 35.589
514.482, 22.834
514.964, 16.238
515.446, 15.104
515.929, 12.637
516.411, 7.805
516.893, 2.948
517.375, 3.335
517.857, 8.214
518.339, 4.786
518.821, 5.547
519.303, 8.809
519.786, 13.493
520.268, 56.429
520.750, 73.235
521.232, 51.379
521.714, 32.036
522.196, 33.026
522.678, 44.599
523.160, 59.866
523.642, 79.435
524.125, 91.943
524.607, 85.122
525.089, 70.587
525.571, 58.081
526.053, 50.808
526.535, 71.597
527.017, 144.381
527.499, 247.787
527.981, 293.223
528.464, 225.192
528.946, 170.156
529.428, 130.400
529.910, 106.271
530.392, 106.048
530.874, 123.821
531.356, 138.149
531.838, 131.951
532.320, 112.787
532.803, 99.701
533.285, 92.654
533.767, 93.346
534.249, 109.119
534.731, 126.658
535.213, 126.062
535.695, 105.915
536.177, 94.648
536.659, 105.117
537.142, 123.375
537.624, 140.320
538.106, 154.853
538.588, 166.871
539.070, 176.609
539.552, 183.772
540.034, 187.059
540.516, 186.716
540.999, 183.432
541.481, 173.581
541.963, 164.423
542.445, 157.348
542.927, 153.649
543.409, 156.731
543.891, 170.866
544.373, 185.600
544.856, 188.880
545.338, 181.855
545.820, 167.360
546.302, 143.246
546.784, 121.035
547.266, 112.010
547.748, 116.808
548.230, 123.874
548.713, 136.220
549.195, 147.378
549.677, 156.035
550.159, 161.755
550.641, 163.706
551.123, 161.842
551.605, 157.526
552.087, 152.252
552.569, 145.926
553.052, 136.484
553.534, 118.942
554.016, 108.523
554.498, 118.907
554.980, 137.044
555.462, 148.276
555.944, 149.989
556.426, 150.317
556.908, 151.296
557.391, 154.296
557.873, 164.131
558.355, 179.181
558.837, 188.373
559.319, 184.540
559.801, 171.439
560.283, 159.077
560.765, 143.792
561.247, 135.471
561.730, 136.985
562.212, 141.983
562.694, 148.745
563.176, 155.949
563.658, 159.556
564.140, 156.721
564.622, 150.239
565.104, 141.834
565.586, 131.464
566.069, 124.637
566.551, 124.199
567.033, 126.587
567.515, 125.115
567.997, 119.226
568.479, 126.971
568.961, 172.279
569.443, 204.778
569.926, 196.405
570.408, 165.462
570.890, 135.413
571.372, 114.605
571.854, 101.921
572.336, 98.818
572.818, 103.710
573.300, 95.497
573.782, 66.879
574.265, 43.615
574.747, 41.363
575.229, 48.752
575.711, 50.392
576.193, 43.530
576.675, 37.340
577.157, 35.778
577.640, 38.802
578.122, 48.117
578.604, 60.246
579.086, 63.205
579.568, 49.379
580.050, 28.091
580.532, 22.500
581.014, 41.450
581.496, 53.151
581.979, 47.357
582.461, 42.089
582.943, 47.108
583.425, 58.421
583.907, 67.011
584.389, 70.329
584.871, 69.408
585.353, 62.087
585.835, 50.872
586.318, 42.473
586.800, 38.073
587.282, 37.696
587.764, 42.523
588.246, 51.798
588.728, 55.183
589.210, 45.543
589.692, 38.726
590.174, 40.645
590.657, 43.167
591.139, 36.120
591.621, 21.255
592.103, 12.635
592.585, 25.553
593.067, 47.017
593.549, 47.193
594.031, 26.074
594.513, 11.261
594.996, 13.791
595.478, 21.523
595.960, 16.760
596.442, 4.101
596.924, 9.372
597.406, 17.313
597.888, 42.677
598.370, 53.997
598.853, 54.130
599.335, 45.211
599.817, 29.108
600.299, 14.421
600.781, 13.961
601.263, 25.346
601.745, 24.984
602.227, 8.486
602.709, 4.618
603.192, 5.160
603.674, 2.774
604.156, 12.746
604.638, 25.817
605.120, 36.034
605.602, 41.878
606.084, 44.510
606.567, 45.136
607.049, 43.392
607.531, 36.852
608.013, 24.155
608.495, 10.414
608.977, 3.837
609.459, 4.626
609.941, 11.705
610.423, 32.154
610.906, 47.385
611.388, 42.926
611.870, 27.670
612.352, 14.491
612.834, 2.914
613.316, 0.561
613.798, 12.541
614.280, 31.861
614.763, 47.141
615.245, 56.823
615.727, 61.064
616.209, 59.725
616.691, 53.921
617.173, 45.830
617.655, 33.884
618.137, 24.683
618.619, 17.037
619.102, 14.380
619.584, 22.302
620.066, 3.808
620.548, 27.394
621.030, 40.810
621.512, 44.577
621.994, 9.801
622.476, 25.121
622.958, 20.245
623.441, 14.450
623.923, 36.448
624.405, 7.262
624.887, 28.894
625.369, 30.314
625.851, 41.005
626.333, 31.642
626.815, 28.063
627.297, 27.637
627.780, 41.357
628.262, 61.595
628.744, 68.103
629.226, 44.828
629.708, 17.935
630.190, 9.297
630.672, 13.143
631.154, 18.990
631.636, 24.199
632.119, 25.564
632.601, 18.737
633.083, 6.297
633.565, 9.038
634.047, 43.251
634.529, 62.986
635.011, 51.251
635.494, 32.374
635.976, 21.553
636.458, 18.825
636.940, 17.157
637.422, 13.450
637.904, 10.192
638.386, 11.093
638.868, 14.271
639.350, 13.483
639.833, 7.284
640.315, 2.940
640.797, 8.553
641.279, 22.709
641.761, 27.967
642.243, 14.714
642.725, 8.931
643.207, 24.833
643.690, 41.168
644.172, 40.319
644.654, 24.272
645.136, 9.211
645.618, 0.002
646.100, 2.921
646.582, 4.787
647.064, 18.663
647.546, 27.956
648.029, 29.977
648.511, 27.972
648.993, 24.856
649.475, 20.602
649.957, 14.067
650.439, 0.360
650.921, 6.288
651.403, 1.321
651.885, 12.403
652.368, 21.026
652.850, 26.559
653.332, 27.929
653.814, 22.750
654.296, 15.071
654.778, 5.983
655.260, 1.351
655.742, 3.888
656.224, 0.435
656.707, 8.015
657.189, 22.161
657.671, 40.046
658.153, 44.160
658.635, 25.371
659.117, 12.509
659.599, 15.759
660.081, 23.524
660.563, 32.547
661.046, 41.077
661.528, 42.007
662.010, 26.445
662.492, 11.814
662.974, 11.423
663.456, 18.083
663.938, 18.199
664.420, 10.109
664.903, 4.272
665.385, 10.510
665.867, 25.047
666.349, 30.482
666.831, 24.242
667.313, 17.640
667.795, 9.726
668.277, 5.569
668.760, 10.675
669.242, 22.939
669.724, 33.972
670.206, 45.200
670.688, 51.292
671.170, 45.670
671.652, 35.880
672.134, 31.165
672.616, 32.317
673.099, 35.724
673.581, 39.521
674.063, 42.042
674.545, 37.304
675.027, 24.038
675.509, 15.231
675.991, 12.705
676.473, 15.581
676.955, 27.530
677.438, 44.982
677.920, 52.729
678.402, 46.977
678.884, 36.666
679.366, 13.292
679.848, 5.796
680.330, 2.233
680.812, 29.529
681.294, 47.524
681.777, 39.484
682.259, 20.053
682.741, 12.472
683.223, 14.995
683.705, 11.648
684.187, 1.340
684.669, 9.145
685.151, 0.350
685.633, 19.596
686.116, 27.829
686.598, 13.957
687.080, 9.556
687.562, 26.453
688.044, 42.090
688.526, 39.694
689.008, 27.491
689.490, 23.168
689.973, 33.684
690.455, 47.148
690.937, 54.949
691.419, 56.763
691.901, 49.525
692.383, 33.820
692.865, 17.659
693.347, 4.061
693.830, 3.381
694.312, 4.363
694.794, 35.435
695.276, 51.670
695.758, 42.029
696.240, 30.221
696.722, 10.512
697.204, 38.219
697.687, 54.396
698.169, 59.679
698.651, 21.384
699.133, 39.452
699.615, 34.912
700.097, 29.434
700.579, 55.288
701.061, 44.318
701.543, 35.401
702.026, 31.421
702.508, 35.720
702.990, 47.061
703.472, 46.413
703.954, 28.441
704.436, 15.076
704.918, 14.116
705.400, 19.098
705.882, 24.243
706.365, 29.485
706.847, 33.130
707.329, 33.994
707.811, 34.361
708.293, 2.241
708.775, 40.678
709.257, 62.134
709.739, 67.423
710.221, 7.871
710.704, 32.086
711.186, 22.723
711.668, 11.972
712.150, 47.940
712.632, 2.243
713.114, 28.399
713.596, 24.599
714.078, 19.676
714.560, 14.022
715.043, 9.585
715.525, 2.202
716.007, 2.349
716.489, 27.487
716.971, 43.589
717.453, 16.976
717.935, 31.397
718.417, 53.324
718.900, 27.893
719.382, 5.001
719.864, 17.136
720.346, 17.309
720.828, 18.152
721.310, 20.506
721.792, 20.842
722.274, 17.198
722.756, 13.261
723.239, 16.130
723.721, 26.880
724.203, 35.356
724.685, 42.653
725.167, 45.189
725.649, 37.810
726.131, 27.136
726.614, 22.706
727.096, 25.232
727.578, 26.711
728.060, 22.876
728.542, 20.597
729.024, 26.031
729.506, 34.102
729.988, 37.672
730.470, 35.519
730.953, 30.713
731.435, 24.599
731.917, 18.490
732.399, 13.776
732.881, 10.892
733.363, 16.311
733.845, 33.147
734.327, 46.605
734.809, 42.021
735.292, 22.756
735.774, 12.037
736.256, 12.502
736.738, 17.156
737.220, 32.336
737.702, 44.534
738.184, 45.416
738.666, 37.986
739.148, 29.469
739.631, 20.287
740.113, 14.556
740.595, 20.385
741.077, 27.056
741.559, 17.136
742.041, 3.782
742.523, 14.516
743.005, 4.688
743.487, 14.116
743.970, 26.986
744.452, 34.172
744.934, 39.975
745.416, 45.000
745.898, 45.841
746.380, 39.877
746.862, 30.974
747.344, 24.092
747.827, 18.595
748.309, 17.005
748.791, 22.069
749.273, 28.707
749.755, 37.045
750.237, 44.187
750.719, 48.650
751.201, 49.268
751.683, 41.411
752.166, 24.603
752.648, 42.395
753.130, 51.793
753.612, 53.260
754.094, 23.088
754.576, 33.790
755.058, 28.110
755.541, 21.727
756.023, 38.155
756.505, 12.527
756.987, 28.597
757.469, 28.015
757.951, 35.044
758.433, 22.174
758.915, 18.792
759.397, 34.734
759.880, 44.609
760.362, 48.702
760.844, 46.546
761.326, 30.377
761.808, 16.590
762.290, 12.126
762.772, 14.641
763.254, 23.026
763.737, 35.913
764.219, 45.844
764.701, 47.205
765.183, 43.359
765.665, 37.001
766.147, 28.955
766.629, 21.674
767.111, 15.663
767.593, 11.734
768.076, 10.702
768.558, 12.110
769.040, 14.279
769.522, 17.841
770.004, 17.133
770.486, 5.885
770.968, 24.544
771.450, 36.573
771.932, 41.365
772.415, 18.915
772.897, 31.160
773.379, 29.421
773.861, 27.110
774.343, 44.313
774.825, 38.755
775.307, 38.158
775.789, 42.092
776.271, 36.888
776.754, 30.912
777.236, 26.660
777.718, 23.179
778.200, 21.926
778.682, 22.303
779.164, 22.876
779.646, 23.196
780.128, 22.753
780.610, 20.817
781.093, 18.133
781.575, 17.978
782.057, 20.959
782.539, 22.024
783.021, 20.200
783.503, 16.573
783.985, 9.934
784.468, 2.505
784.950, 2.272
785.432, 16.309
785.914, 22.518
786.396, 10.581
786.878, 0.716
787.360, 5.901
787.842, 17.757
788.324, 23.304
788.807, 19.878
789.289, 16.752
789.771, 19.799
790.253, 25.568
790.735, 32.300
791.217, 37.505
791.699, 37.440
792.181, 31.904
792.664, 27.432
793.146, 30.118
793.628, 36.080
794.110, 33.925
794.592, 23.781
795.074, 17.945
795.556, 18.500
796.038, 22.442
796.520, 29.695
797.003, 37.189
797.485, 35.635
797.967, 19.221
798.449, 8.628
798.931, 5.658
799.413, 6.449
799.895, 12.091
800.377, 18.744
800.859, 24.319
801.342, 28.261
801.824, 28.110
802.306, 19.298
802.788, 10.345
803.270, 7.158
803.752, 6.404
804.234, 1.937
804.716, 5.415
805.198, 7.806
805.681, 0.733
806.163, 13.474
806.645, 3.800
807.127, 24.077
807.609, 40.613
808.091, 46.705
808.573, 11.083
809.055, 29.320
809.537, 25.968
810.020, 21.696
810.502, 47.505
810.984, 37.968
811.466, 18.111
811.948, 7.259
812.430, 19.304
812.912, 36.921
813.394, 38.915
813.877, 26.300
814.359, 22.282
814.841, 39.315
815.323, 49.239
815.805, 40.442
816.287, 27.817
816.769, 22.370
817.251, 22.591
817.734, 21.937
818.216, 18.149
818.698, 13.830
819.180, 8.284
819.662, 4.835
820.144, 9.313
820.626, 19.101
821.108, 26.634
821.591, 29.650
822.073, 32.544
822.555, 41.960
823.037, 53.262
823.519, 49.674
824.001, 32.460
824.483, 23.284
824.965, 27.596
825.447, 33.535
825.930, 31.834
826.412, 24.574
826.894, 19.194
827.376, 17.114
827.858, 12.159
828.340, 1.366
828.822, 9.407
829.304, 1.881
829.786, 13.173
830.269, 25.416
830.751, 35.234
831.233, 37.500
831.715, 22.992
832.197, 11.557
832.679, 13.170
833.161, 19.550
833.643, 21.191
834.125, 18.989
834.607, 22.482
835.090, 39.038
835.572, 52.436
836.054, 50.191
836.536, 40.259
837.018, 30.208
837.500, 22.530
837.982, 22.368
838.464, 31.681
838.947, 42.917
839.429, 47.041
839.911, 45.582
840.393, 43.320
840.875, 40.646
841.357, 42.120
841.839, 49.479
842.321, 54.674
842.804, 50.426
843.286, 38.840
843.768, 27.765
844.250, 14.596
844.732, 11.597
845.214, 27.013
845.696, 40.547
846.178, 41.032
846.661, 32.622
847.143, 20.700
847.625, 1.478
848.107, 3.631
848.589, 18.913
849.071, 39.908
849.553, 51.075
850.035, 55.581
850.517, 55.217
851.000, 51.159
851.482, 46.749
851.964, 43.914
852.446, 39.589
852.928, 29.926
853.410, 19.482
853.892, 10.836
854.374, 5.947
854.856, 9.976
855.339, 24.505
855.821, 38.904
856.303, 41.912
856.785, 38.249
857.267, 35.912
857.749, 34.782
858.231, 34.163
858.713, 33.794
859.195, 32.457
859.678, 28.836
860.160, 24.479
860.642, 23.807
861.124, 26.958
861.606, 30.733
862.088, 35.917
862.570, 34.237
863.052, 18.933
863.534, 1.161
864.017, 4.499
864.499, 0.494
864.981, 25.025
865.463, 20.469
865.945, 31.358
866.427, 38.432
866.909, 42.019
867.391, 31.427
867.874, 39.120
868.356, 39.492
868.838, 39.560
869.320, 49.808
869.802, 41.189
870.284, 51.276
870.766, 53.937
871.248, 60.005
871.731, 58.690
872.213, 59.639
872.695, 67.983
873.177, 72.235
873.659, 70.061
874.141, 76.331
874.623, 67.497
875.105, 71.905
875.588, 82.023
876.070, 77.643
876.552, 63.898
877.034, 57.232
877.516, 48.028
877.998, 39.373
878.480, 39.449
878.962, 46.159
879.444, 50.425
879.927, 49.189
880.409, 42.334
880.891, 27.513
881.373, 10.381
881.855, 10.132
882.337, 26.758
882.819, 38.522
883.301, 43.232
883.783, 41.276
884.266, 31.694
884.748, 19.312
885.230, 15.852
885.712, 22.967
886.194, 22.951
886.676, 13.438
887.158, 4.902
887.640, 0.213
888.122, 2.030
888.605, 1.225
889.087, 8.293
889.569, 11.006
890.051, 6.375
890.533, 2.158
891.015, 1.835
891.497, 4.716
891.979, 13.433
892.461, 18.020
892.944, 2.050
893.426, 47.418
893.908, 73.417
894.390, 53.818
894.872, 31.731
895.354, 23.616
895.836, 21.476
896.318, 20.077
896.801, 17.611
897.283, 10.936
897.765, 2.261
898.247, 11.761
898.729, 9.866
899.211, 2.203
899.693, 7.876
900.175, 18.801
900.657, 29.852
901.140, 39.862
901.622, 44.534
902.104, 39.830
902.586, 30.778
903.068, 20.906
903.550, 12.626
904.032, 13.001
904.515, 21.020
904.997, 29.491
905.479, 35.144
905.961, 38.499
906.443, 40.701
906.925, 41.656
907.407, 44.481
907.889, 48.476
908.371, 43.615
908.854, 27.628
909.336, 13.746
909.818, 10.798
910.300, 16.068
910.782, 25.501
911.264, 39.791
911.746, 46.975
912.228, 45.152
912.710, 45.345
913.193, 52.861
913.675, 58.524
914.157, 50.861
914.639, 33.585
915.121, 31.423
915.603, 53.095
916.085, 67.856
916.567, 73.752
917.049, 72.657
917.532, 60.281
918.014, 44.933
918.496, 39.668
918.978, 45.750
919.460, 50.042
919.942, 51.232
920.424, 52.514
920.906, 56.274
921.388, 58.183
921.871, 54.141
922.353, 47.101
922.835, 41.934
923.317, 38.567
923.799, 38.383
924.281, 46.352
924.763, 52.078
925.245, 49.922
925.728, 43.745
926.210, 36.882
926.692, 30.022
927.174, 22.952
927.656, 13.050
928.138, 9.054
928.620, 19.911
929.102, 34.318
929.584, 47.516
930.067, 55.359
930.549, 49.001
931.031, 28.808
931.513, 11.525
931.995, 6.456
932.477, 9.146
932.959, 21.399
933.442, 35.406
933.924, 40.722
934.406, 37.658
934.888, 29.664
935.370, 18.217
935.852, 7.756
936.334, 0.984
936.816, 1.286
937.298, 6.146
937.781, 18.153
938.263, 13.248
938.745, 4.294
939.227, 1.966
939.709, 11.039
940.191, 4.427
940.673, 12.985
941.155, 15.007
941.638, 9.083
942.120, 0.544
942.602, 3.341
943.084, 7.781
943.566, 6.592
944.048, 13.701
944.530, 0.374
945.012, 0.634
945.494, 6.952
945.977, 0.438
946.459, 3.427
946.941, 7.397
947.423, 10.709
947.905, 2.142
948.387, 9.007
948.869, 12.159
949.351, 9.125
949.833, 8.331
950.316, 17.527
950.798, 0.959
951.280, 14.807
951.762, 16.197
952.244, 13.216
952.726, 21.473
953.208, 40.106
953.690, 47.126
954.172, 39.266
954.655, 34.622
955.137, 37.603
955.619, 39.105
956.101, 31.260
956.583, 22.299
957.065, 30.028
957.547, 10.128
958.029, 38.249
958.511, 54.717
958.994, 60.158
959.476, 21.537
959.958, 39.817
960.440, 35.298
960.922, 29.845
961.404, 56.141
961.886, 45.104
962.369, 39.442
962.851, 57.553
963.333, 76.411
963.815, 94.713
964.297, 105.826
964.779, 99.156
965.261, 78.866
965.743, 67.411
966.225, 71.505
966.708, 72.339
967.190, 61.993
967.672, 57.993
968.154, 77.154
968.636, 98.162
969.118, 91.219
969.600, 60.043
970.082, 50.457
970.565, 88.306
971.047, 112.793
971.529, 107.043
972.011, 99.640
972.493, 104.654
972.975, 116.112
973.457, 122.014
973.939, 122.318
974.421, 140.357
974.904, 215.037
975.386, 257.118
975.868, 224.109
976.350, 177.936
976.832, 149.051
977.314, 136.600
977.796, 138.102
978.278, 153.543
978.760, 168.256
979.243, 173.329
979.725, 184.597
980.207, 218.302
980.689, 249.469
981.171, 253.955
981.653, 243.591
982.135, 243.989
982.617, 260.368
983.099, 277.749
983.582, 290.936
984.064, 305.209
984.546, 325.538
985.028, 345.563
985.510, 360.864
985.992, 371.087
986.474, 374.497
986.956, 368.589
987.438, 370.924
987.921, 397.238
988.403, 422.034
988.885, 433.419
989.367, 435.953
989.849, 430.912
990.331, 421.814
990.813, 417.615
991.295, 422.916
991.778, 421.854
992.260, 395.275
992.742, 374.955
993.224, 391.170
993.706, 415.205
994.188, 411.371
994.670, 384.713
995.152, 365.049
995.635, 362.284
996.117, 363.812
996.599, 365.059
997.081, 367.574
997.563, 375.595
998.045, 382.921
998.527, 379.951
999.009, 367.253
999.491, 350.322
999.974, 329.363
1000.456, 312.595
1000.938, 302.796
1001.420, 300.260
1001.902, 311.314
1002.384, 325.152
1002.866, 327.009
1003.348, 315.957
1003.830, 296.465
1004.313, 264.405
1004.795, 240.418
1005.277, 242.294
1005.759, 247.293
1006.241, 239.689
1006.723, 224.778
1007.205, 210.284
1007.687, 197.650
1008.169, 187.024
1008.652, 179.896
1009.134, 174.764
1009.616, 176.260
1010.098, 174.265
1010.580, 156.816
1011.062, 134.318
1011.544, 119.809
1012.026, 114.637
1012.509, 115.594
1012.991, 127.676
1013.473, 131.604
1013.955, 105.966
1014.437, 83.256
1014.919, 93.705
1015.401, 115.783
1015.883, 119.263
1016.365, 103.169
1016.848, 85.652
1017.330, 67.896
1017.812, 59.571
1018.294, 76.340
1018.776, 90.911
1019.258, 82.086
1019.740, 62.991
1020.222, 50.561
1020.705, 46.061
1021.187, 42.594
1021.669, 37.874
1022.151, 34.647
1022.633, 36.290
1023.115, 36.972
1023.597, 28.922
1024.079, 20.767
1024.562, 11.430
1025.044, 23.293
1025.526, 30.015
1026.008, 31.872
1026.490, 14.280
1026.972, 21.810
1027.454, 19.278
1027.936, 16.669
1028.418, 27.932
1028.901, 13.188
1029.383, 24.049
1029.865, 24.694
1030.347, 30.019
1030.829, 25.221
1031.311, 23.287
1031.793, 23.692
1032.275, 29.512
1032.757, 34.510
1033.240, 33.384
1033.722, 27.297
1034.204, 23.488
1034.686, 22.667
1035.168, 24.163
1035.650, 31.482
1036.132, 36.734
1036.614, 34.299
1037.097, 30.728
1037.579, 34.188
1038.061, 30.520
1038.543, 38.242
1039.025, 43.381
1039.507, 45.149
1039.989, 37.482
1040.471, 42.005
1040.953, 41.648
1041.436, 41.094
1041.918, 47.342
1042.400, 41.063
1042.882, 47.209
1043.364, 48.400
1043.846, 48.445
1044.328, 43.468
1044.810, 52.041
1045.292, 57.064
1045.775, 60.127
1046.257, 62.239
1046.739, 63.481
1047.221, 64.168
1047.703, 64.396
1048.185, 63.599
1048.667, 63.378
1049.149, 60.045
1049.632, 49.602
1050.114, 43.654
1050.596, 54.752
1051.078, 72.482
1051.560, 72.231
1052.042, 51.755
1052.524, 38.590
1053.006, 33.381
1053.489, 32.449
1053.971, 35.569
1054.453, 40.455
1054.935, 46.034
1055.417, 51.472
1055.899, 56.469
1056.381, 60.627
1056.863, 54.862
1057.345, 38.133
1057.828, 35.251
1058.310, 50.611
1058.792, 65.788
1059.274, 71.131
1059.756, 71.660
1060.238, 74.571
1060.720, 78.436
1061.202, 76.515
1061.684, 70.179
1062.167, 68.939
1062.649, 73.258
1063.131, 75.742
1063.613, 73.200
1064.095, 66.401
1064.577, 55.158
1065.059, 41.678
1065.541, 26.993
1066.024, 14.585
1066.506, 17.431
1066.988, 32.258
1067.470, 42.405
1067.952, 42.456
1068.434, 36.951
1068.916, 25.910
1069.398, 18.982
1069.880, 36.341
1070.363, 60.877
1070.845, 64.344
1071.327, 52.185
1071.809, 41.615
1072.291, 36.344
1072.773, 29.376
1073.255, 14.705
1073.737, 2.981
1074.219, 5.016
1074.702, 12.272
1075.184, 16.933
1075.666, 20.654
1076.148, 28.483
1076.630, 39.049
1077.112, 44.283
1077.594, 40.867
1078.076, 33.344
1078.559, 16.186
1079.041, 4.587
1079.523, 12.874
1080.005, 27.332
1080.487, 35.039
1080.969, 35.915
1081.451, 33.973
1081.933, 29.823
1082.415, 23.481
1082.898, 9.616
1083.380, 0.731
1083.862, 6.678
1084.344, 13.098
1084.826, 4.993
1085.308, 8.267
1085.790, 5.252
1086.272, 17.392
1086.755, 30.833
1087.237, 29.261
1087.719, 29.284
1088.201, 36.304
1088.683, 39.020
1089.165, 28.662
1089.647, 15.264
1090.129, 13.215
1090.611, 20.874
1091.094, 19.674
1091.576, 6.203
1092.058, 0.976
1092.540, 0.122
1093.022, 6.216
1093.504, 17.204
1093.986, 26.296
1094.468, 27.728
1094.950, 22.226
1095.433, 6.258
1095.915, 18.505
1096.397, 16.947
1096.879, 10.445
1097.361, 29.466
1097.843, 31.390
1098.325, 25.499
1098.807, 17.343
1099.290, 10.380
1099.772, 10.775
1100.254, 16.242
1100.736, 23.830
1101.218, 30.795
1101.700, 26.776
1102.182, 13.080
1102.664, 2.785
1103.146, 1.760
1103.629, 3.575
1104.111, 2.167
1104.593, 0.270
1105.075, 0.938
1105.557, 0.410
1106.039, 15.744
1106.521, 20.796
1107.003, 23.965
1107.485, 10.122
1107.968, 0.410
1108.450, 5.399
1108.932, 4.404
1109.414, 5.956
1109.896, 8.206
1110.378, 10.124
1110.860, 23.296
1111.342, 23.229
1111.825, 28.381
1112.307, 27.266
1112.789, 9.438
1113.271, 3.590
1113.753, 10.996
1114.235, 10.484
1114.717, 9.187
1115.199, 26.669
1115.682, 21.726
1116.164, 4.839
1116.646, 2.354
1117.128, 16.537
1117.610, 26.406
1118.092, 31.220
1118.574, 34.577
1119.056, 37.499
1119.538, 36.324
1120.021, 27.520
1120.503, 18.776
1120.985, 21.930
1121.467, 33.288
1121.949, 32.789
1122.431, 21.561
1122.913, 18.477
1123.395, 23.960
1123.877, 26.067
1124.360, 21.070
1124.842, 15.441
1125.324, 14.243
1125.806, 16.599
1126.288, 22.938
1126.770, 29.398
1127.252, 28.121
1127.734, 21.628
1128.217, 14.942
1128.699, 10.302
1129.181, 11.791
1129.663, 21.563
1130.145, 33.171
1130.627, 46.619
1131.109, 54.524
1131.591, 46.570
1132.073, 33.730
1132.556, 27.562
1133.038, 26.420
1133.520, 23.289
1134.002, 17.273
1134.484, 18.471
1134.966, 39.821
1135.448, 53.417
1135.930, 45.823
1136.412, 37.936
1136.895, 43.862
1137.377, 51.151
1137.859, 43.155
1138.341, 25.081
1138.823, 19.613
1139.305, 32.664
1139.787, 36.422
1140.269, 26.163
1140.752, 22.301
1141.234, 31.512
1141.716, 40.288
1142.198, 39.620
1142.680, 34.851
1143.162, 34.444
1143.644, 37.791
1144.126, 39.762
1144.609, 39.868
1145.091, 31.924
1145.573, 17.588
1146.055, 16.956
1146.537, 36.262
1147.019, 54.213
1147.501, 52.813
1147.983, 42.532
1148.465, 36.320
1148.948, 31.050
1149.430, 19.996
1149.912, 7.062
1150.394, 0.767
1150.876, 2.223
1151.358, 3.191
1151.840, 16.882
1152.322, 27.765
1152.804, 29.750
1153.287, 28.193
1153.769, 19.126
1154.251, 13.247
1154.733, 23.192
1155.215, 39.670
1155.697, 47.999
1156.179, 47.092
1156.661, 42.974
1157.144, 32.878
1157.626, 25.108
1158.108, 17.871
1158.590, 18.491
1159.072, 34.962
1159.554, 47.307
1160.036, 35.562
1160.518, 11.681
1161.000, 5.837
1161.483, 17.467
1161.965, 26.217
1162.447, 32.016
1162.929, 32.917
1163.411, 29.145
1163.893, 25.125
1164.375, 24.167
1164.857, 22.855
1165.339, 18.285
1165.822, 13.509
1166.304, 11.471
1166.786, 12.259
1167.268, 22.032
1167.750, 34.215
1168.232, 34.159
1168.714, 21.919
1169.196, 11.437
1169.679, 8.204
1170.161, 8.144
1170.643, 9.957
1171.125, 13.174
1171.607, 22.071
1172.089, 28.740
1172.571, 21.520
1173.053, 8.933
1173.536, 10.175
1174.018, 3.893
1174.500, 12.122
1174.982, 16.947
1175.464, 18.356
1175.946, 6.344
1176.428, 11.643
1176.910, 10.011
1177.392, 8.101
1177.875, 12.009
1178.357, 8.871
1178.839, 5.979
1179.321, 3.310
1179.803, 0.483
1180.285, 4.240
1180.767, 0.856
1181.249, 13.531
1181.731, 18.787
1182.214, 10.897
1182.696, 0.928
1183.178, 4.600
1183.660, 3.244
1184.142, 16.198
1184.624, 36.414
1185.106, 34.607
1185.588, 22.937
1186.071, 21.427
1186.553, 30.130
1187.035, 38.196
1187.517, 44.938
1187.999, 43.930
1188.481, 23.001
1188.963, 10.139
1189.445, 17.387
1189.927, 26.853
1190.410, 30.110
1190.892, 29.143
1191.374, 25.963
1191.856, 21.109
1192.338, 17.980
1192.820, 16.747
1193.302, 12.901
1193.784, 6.322
1194.266, 9.503
1194.749, 24.769
1195.231, 32.965
1195.713, 22.335
1196.195, 7.115
1196.677, 0.097
1197.159, 3.362
1197.641, 30.946
1198.123, 63.739
1198.606, 70.297
1199.088, 57.048
1199.570, 41.502
1200.052, 28.977
1200.534, 24.371
1201.016, 32.636
1201.498, 40.854
1201.980, 47.531
1202.463, 49.669
1202.945, 24.640
1203.427, 16.200
1203.909, 25.709
1204.391, 30.891
1204.873, 31.912
1205.355, 16.452
1205.837, 22.266
1206.319, 19.550
1206.802, 16.479
1207.284, 20.582
1207.766, 15.929
1208.248, 16.834
1208.730, 19.968
1209.212, 23.553
1209.694, 25.338
1210.176, 20.131
1210.658, 11.996
1211.141, 5.979
1211.623, 3.568
1212.105, 11.578
1212.587, 24.795
1213.069, 26.621
1213.551, 14.874
1214.033, 7.814
1214.515, 16.489
1214.998, 23.030
1215.480, 16.048
1215.962, 12.815
1216.444, 27.602
1216.926, 41.353
1217.408, 35.776
1217.890, 22.080
1218.372, 23.187
1218.854, 38.447
1219.337, 44.336
1219.819, 40.399
1220.301, 29.729
1220.783, 12.681
1221.265, 0.235
1221.747, 5.722
1222.229, 3.818
1222.711, 6.272
1223.193, 19.697
1223.676, 34.373
1224.158, 45.750
1224.640, 44.549
1225.122, 36.852
1225.604, 34.226
1226.086, 34.321
1226.568, 34.233
1227.050, 32.484
1227.533, 16.809
1228.015, 7.602
1228.497, 18.244
1228.979, 24.065
1229.461, 25.263
1229.943, 8.292
1230.425, 14.852
1230.907, 11.984
1231.390, 8.700
1231.872, 18.401
1232.354, 3.999
1232.836, 13.644
1233.318, 13.232
1233.800, 17.471
1234.282, 12.426
1234.764, 10.309
1235.246, 17.678
1235.729, 9.239
1236.211, 9.535
1236.693, 13.436
1237.175, 17.085
1237.657, 20.031
1238.139, 22.617
1238.621, 23.679
1239.103, 22.419
1239.585, 18.803
1240.068, 8.768
1240.550, 5.451
1241.032, 3.372
1241.514, 26.606
1241.996, 38.035
1242.478, 23.677
1242.960, 12.916
1243.442, 11.489
1243.924, 13.338
1244.407, 15.684
1244.889, 18.609
1245.371, 22.699
1245.853, 24.333
1246.335, 19.941
1246.817, 13.515
1247.299, 10.741
1247.781, 11.402
1248.264, 14.980
1248.746, 20.474
1249.228, 26.603
1249.710, 33.191
1250.192, 33.711
1250.674, 20.193
1251.156, 8.482
1251.638, 1.093
1252.120, 1.825
1252.603, 17.960
1253.085, 36.554
1253.567, 35.040
1254.049, 22.143
1254.531, 16.471
1255.013, 17.406
1255.495, 15.373
1255.977, 16.822
1256.459, 21.192
1256.942, 28.027
1257.424, 33.091
1257.906, 35.095
1258.388, 34.599
1258.870, 30.730
1259.352, 31.157
1259.834, 53.767
1260.316, 68.833
1260.799, 40.953
1261.281, 6.636
1261.763, 1.004
1262.245, 11.378
1262.727, 18.873
1263.209, 22.327
1263.691, 22.407
1264.173, 16.856
1264.656, 17.866
1265.138, 27.225
1265.620, 33.389
1266.102, 33.816
1266.584, 32.792
1267.066, 31.461
1267.548, 26.447
1268.030, 12.558
1268.512, 0.148
1268.995, 6.571
1269.477, 0.000
##END=



